Perfil de Temperatura via solucao analitica
t =  0 100
Point Temperature
0 16.0017 32.3285 
0.0001 16.002 32.3286 
0.0002 16.003 32.3288 
0.0003 16.0045 32.3291 
0.0004 16.0067 32.3296 
0.0005 16.0094 32.3302 
0.0006 16.0128 32.3309 
0.0007 16.0168 32.3318 
0.0008 16.0214 32.3327 
0.0009 16.0267 32.3339 
0.001 16.0325 32.3351 
0.0011 16.0389 32.3365 
0.0012 16.046 32.338 
0.0013 16.0536 32.3396 
0.0014 16.0619 32.3414 
0.0015 16.0708 32.3433 
0.0016 16.0802 32.3454 
0.0017 16.0903 32.3475 
0.0018 16.1009 32.3498 
0.0019 16.1122 32.3522 
0.002 16.124 32.3548 
0.0021 16.1364 32.3575 
0.0022 16.1494 32.3603 
0.0023 16.1629 32.3632 
0.0024 16.1771 32.3662 
0.0025 16.1918 32.3694 
0.0026 16.2071 32.3727 
0.0027 16.2229 32.3762 
0.0028 16.2393 32.3797 
0.0029 16.2563 32.3834 
0.003 16.2738 32.3872 
0.0031 16.2918 32.3911 
0.0032 16.3104 32.3952 
0.0033 16.3296 32.3993 
0.0034 16.3492 32.4036 
0.0035 16.3694 32.408 
0.0036 16.3901 32.4125 
0.0037 16.4113 32.4172 
0.0038 16.4331 32.422 
0.0039 16.4553 32.4268 
0.004 16.4781 32.4318 
0.0041 16.5013 32.4369 
0.0042 16.525 32.4422 
0.0043 16.5492 32.4475 
0.0044 16.5739 32.4529 
0.0045 16.599 32.4585 
0.0046 16.6246 32.4642 
0.0047 16.6507 32.4699 
0.0048 16.6772 32.4758 
0.0049 16.7041 32.4818 
0.005 16.7315 32.4879 
0.0051 16.7594 32.4941 
0.0052 16.7876 32.5004 
0.0053 16.8162 32.5068 
0.0054 16.8453 32.5134 
0.0055 16.8748 32.52 
0.0056 16.9046 32.5267 
0.0057 16.9349 32.5335 
0.0058 16.9655 32.5404 
0.0059 16.9965 32.5474 
0.006 17.0278 32.5545 
0.0061 17.0596 32.5617 
0.0062 17.0916 32.569 
0.0063 17.124 32.5764 
0.0064 17.1567 32.5839 
0.0065 17.1898 32.5914 
0.0066 17.2232 32.5991 
0.0067 17.2569 32.6068 
0.0068 17.2908 32.6147 
0.0069 17.3251 32.6226 
0.007 17.3597 32.6305 
0.0071 17.3945 32.6386 
0.0072 17.4296 32.6468 
0.0073 17.465 32.655 
0.0074 17.5006 32.6633 
0.0075 17.5365 32.6717 
0.0076 17.5725 32.6801 
0.0077 17.6089 32.6886 
0.0078 17.6454 32.6972 
0.0079 17.6821 32.7059 
0.008 17.7191 32.7146 
0.0081 17.7562 32.7234 
0.0082 17.7935 32.7323 
0.0083 17.831 32.7412 
0.0084 17.8687 32.7502 
0.0085 17.9065 32.7592 
0.0086 17.9445 32.7683 
0.0087 17.9826 32.7775 
0.0088 18.0209 32.7867 
0.0089 18.0592 32.796 
0.009 18.0977 32.8053 
0.0091 18.1363 32.8147 
0.0092 18.175 32.8241 
0.0093 18.2138 32.8336 
0.0094 18.2527 32.8431 
0.0095 18.2917 32.8526 
0.0096 18.3307 32.8622 
0.0097 18.3697 32.8718 
0.0098 18.4089 32.8815 
0.0099 18.448 32.8912 
0.01 18.4872 32.9009 
0.0101 18.5265 32.9107 
0.0102 18.5657 32.9205 
0.0103 18.605 32.9303 
0.0104 18.6442 32.9402 
0.0105 18.6835 32.9501 
0.0106 18.7227 32.96 
0.0107 18.7619 32.9699 
0.0108 18.8011 32.9798 
0.0109 18.8403 32.9898 
0.011 18.8794 32.9998 
0.0111 18.9185 33.0097 
0.0112 18.9575 33.0197 
0.0113 18.9964 33.0298 
0.0114 19.0353 33.0398 
0.0115 19.074 33.0498 
0.0116 19.1127 33.0598 
0.0117 19.1513 33.0698 
0.0118 19.1898 33.0798 
0.0119 19.2282 33.0899 
0.012 19.2665 33.0999 
0.0121 19.3047 33.1099 
0.0122 19.3427 33.1199 
0.0123 19.3806 33.1298 
0.0124 19.4183 33.1398 
0.0125 19.4559 33.1498 
0.0126 19.4934 33.1597 
0.0127 19.5307 33.1696 
0.0128 19.5678 33.1795 
0.0129 19.6048 33.1894 
0.013 19.6416 33.1992 
0.0131 19.6782 33.209 
0.0132 19.7146 33.2188 
0.0133 19.7508 33.2286 
0.0134 19.7868 33.2383 
0.0135 19.8226 33.248 
0.0136 19.8582 33.2576 
0.0137 19.8936 33.2672 
0.0138 19.9288 33.2768 
0.0139 19.9637 33.2863 
0.014 19.9985 33.2957 
0.0141 20.033 33.3051 
0.0142 20.0672 33.3145 
0.0143 20.1012 33.3238 
0.0144 20.135 33.333 
0.0145 20.1685 33.3422 
0.0146 20.2018 33.3513 
0.0147 20.2348 33.3604 
0.0148 20.2675 33.3694 
0.0149 20.3 33.3783 
0.015 20.3322 33.3872 
0.0151 20.3641 33.3959 
0.0152 20.3958 33.4046 
0.0153 20.4272 33.4133 
0.0154 20.4583 33.4218 
0.0155 20.4891 33.4303 
0.0156 20.5196 33.4386 
0.0157 20.5499 33.4469 
0.0158 20.5798 33.4551 
0.0159 20.6095 33.4632 
0.016 20.6388 33.4712 
0.0161 20.6679 33.4792 
0.0162 20.6967 33.487 
0.0163 20.7251 33.4947 
0.0164 20.7533 33.5023 
0.0165 20.7811 33.5098 
0.0166 20.8087 33.5172 
0.0167 20.8359 33.5245 
0.0168 20.8628 33.5316 
0.0169 20.8895 33.5387 
0.017 20.9158 33.5456 
0.0171 20.9417 33.5524 
0.0172 20.9674 33.5591 
0.0173 20.9928 33.5657 
0.0174 21.0178 33.5721 
0.0175 21.0425 33.5784 
0.0176 21.0669 33.5846 
0.0177 21.091 33.5906 
0.0178 21.1148 33.5965 
0.0179 21.1383 33.6022 
0.018 21.1614 33.6078 
0.0181 21.1842 33.6133 
0.0182 21.2067 33.6186 
0.0183 21.2289 33.6238 
0.0184 21.2508 33.6288 
0.0185 21.2723 33.6336 
0.0186 21.2936 33.6383 
0.0187 21.3145 33.6429 
0.0188 21.3351 33.6472 
0.0189 21.3554 33.6514 
0.019 21.3753 33.6555 
0.0191 21.395 33.6593 
0.0192 21.4144 33.663 
0.0193 21.4334 33.6665 
0.0194 21.4521 33.6699 
0.0195 21.4706 33.673 
0.0196 21.4887 33.676 
0.0197 21.5065 33.6788 
0.0198 21.524 33.6814 
0.0199 21.5412 33.6838 
0.02 21.5581 33.686 
0.0201 21.5748 33.688 
0.0202 21.5911 33.6898 
0.0203 21.6071 33.6914 
0.0204 21.6228 33.6928 
0.0205 21.6382 33.694 
0.0206 21.6534 33.695 
0.0207 21.6683 33.6958 
0.0208 21.6828 33.6963 
0.0209 21.6971 33.6967 
0.021 21.7111 33.6968 
0.0211 21.7248 33.6967 
0.0212 21.7383 33.6964 
0.0213 21.7515 33.6958 
0.0214 21.7644 33.695 
0.0215 21.777 33.694 
0.0216 21.7894 33.6927 
0.0217 21.8015 33.6913 
0.0218 21.8133 33.6895 
0.0219 21.8249 33.6875 
0.022 21.8362 33.6853 
0.0221 21.8472 33.6828 
0.0222 21.858 33.6801 
0.0223 21.8686 33.6771 
0.0224 21.8789 33.6739 
0.0225 21.889 33.6704 
0.0226 21.8988 33.6666 
0.0227 21.9083 33.6626 
0.0228 21.9177 33.6583 
0.0229 21.9267 33.6537 
0.023 21.9356 33.6489 
0.0231 21.9442 33.6438 
0.0232 21.9526 33.6384 
0.0233 21.9608 33.6327 
0.0234 21.9687 33.6267 
0.0235 21.9764 33.6205 
0.0236 21.9839 33.6139 
0.0237 21.9912 33.6071 
0.0238 21.9982 33.6 
0.0239 22.0051 33.5926 
0.024 22.0117 33.5848 
0.0241 22.0181 33.5768 
0.0242 22.0243 33.5685 
0.0243 22.0303 33.5598 
0.0244 22.0361 33.5509 
0.0245 22.0417 33.5416 
0.0246 22.047 33.532 
0.0247 22.0522 33.5221 
0.0248 22.0572 33.5119 
0.0249 22.062 33.5013 
0.025 22.0666 33.4904 
0.0251 22.071 33.4792 
0.0252 22.0752 33.4677 
0.0253 22.0792 33.4558 
0.0254 22.0831 33.4436 
0.0255 22.0867 33.431 
0.0256 22.0902 33.4181 
0.0257 22.0934 33.4048 
0.0258 22.0965 33.3912 
0.0259 22.0994 33.3772 
0.026 22.1021 33.3629 
0.0261 22.1046 33.3482 
0.0262 22.107 33.3332 
0.0263 22.1092 33.3178 
0.0264 22.1112 33.302 
0.0265 22.113 33.2859 
0.0266 22.1146 33.2693 
0.0267 22.116 33.2525 
0.0268 22.1173 33.2352 
0.0269 22.1184 33.2175 
0.027 22.1193 33.1995 
0.0271 22.12 33.1811 
0.0272 22.1206 33.1622 
0.0273 22.121 33.143 
0.0274 22.1212 33.1234 
0.0275 22.1212 33.1034 
0.0276 22.121 33.083 
0.0277 22.1206 33.0622 
0.0278 22.1201 33.041 
0.0279 22.1194 33.0193 
0.028 22.1185 32.9973 
0.0281 22.1174 32.9748 
0.0282 22.1161 32.952 
0.0283 22.1146 32.9287 
0.0284 22.1129 32.9049 
0.0285 22.1111 32.8808 
0.0286 22.109 32.8562 
0.0287 22.1068 32.8312 
0.0288 22.1043 32.8057 
0.0289 22.1017 32.7798 
0.029 22.0988 32.7535 
0.0291 22.0958 32.7267 
0.0292 22.0925 32.6995 
0.0293 22.089 32.6718 
0.0294 22.0853 32.6437 
0.0295 22.0814 32.6151 
0.0296 22.0773 32.586 
0.0297 22.073 32.5565 
0.0298 22.0684 32.5265 
0.0299 22.0636 32.496 
0.03 22.0586 32.4651 
