Perfil de Temperatura via solucao analitica
t =  0 100
Point Temperature
0 12.3831 32.3278 
0.0001 12.3854 32.3279 
0.0002 12.3923 32.3281 
0.0003 12.4039 32.3284 
0.0004 12.4201 32.3289 
0.0005 12.4409 32.3295 
0.0006 12.4662 32.3302 
0.0007 12.4961 32.331 
0.0008 12.5305 32.332 
0.0009 12.5694 32.3332 
0.001 12.6127 32.3344 
0.0011 12.6605 32.3358 
0.0012 12.7125 32.3373 
0.0013 12.7689 32.339 
0.0014 12.8295 32.3408 
0.0015 12.8942 32.3427 
0.0016 12.963 32.3447 
0.0017 13.0359 32.3469 
0.0018 13.1127 32.3492 
0.0019 13.1934 32.3516 
0.002 13.2779 32.3542 
0.0021 13.3661 32.3569 
0.0022 13.4578 32.3597 
0.0023 13.5531 32.3626 
0.0024 13.6518 32.3657 
0.0025 13.7538 32.3689 
0.0026 13.859 32.3722 
0.0027 13.9673 32.3757 
0.0028 14.0786 32.3793 
0.0029 14.1928 32.383 
0.003 14.3097 32.3868 
0.0031 14.4293 32.3907 
0.0032 14.5513 32.3948 
0.0033 14.6758 32.399 
0.0034 14.8025 32.4033 
0.0035 14.9313 32.4077 
0.0036 15.0622 32.4122 
0.0037 15.1949 32.4169 
0.0038 15.3293 32.4217 
0.0039 15.4654 32.4266 
0.004 15.6029 32.4316 
0.0041 15.7417 32.4367 
0.0042 15.8818 32.442 
0.0043 16.0228 32.4473 
0.0044 16.1648 32.4528 
0.0045 16.3076 32.4584 
0.0046 16.451 32.4641 
0.0047 16.5949 32.4699 
0.0048 16.7391 32.4758 
0.0049 16.8836 32.4818 
0.005 17.0281 32.4879 
0.0051 17.1726 32.4942 
0.0052 17.3169 32.5005 
0.0053 17.4608 32.5069 
0.0054 17.6042 32.5135 
0.0055 17.7471 32.5201 
0.0056 17.8892 32.5268 
0.0057 18.0304 32.5337 
0.0058 18.1706 32.5406 
0.0059 18.3097 32.5476 
0.006 18.4475 32.5548 
0.0061 18.5839 32.562 
0.0062 18.7189 32.5693 
0.0063 18.8522 32.5767 
0.0064 18.9838 32.5842 
0.0065 19.1135 32.5918 
0.0066 19.2412 32.5995 
0.0067 19.3669 32.6072 
0.0068 19.4903 32.6151 
0.0069 19.6115 32.623 
0.007 19.7304 32.631 
0.0071 19.8467 32.6391 
0.0072 19.9604 32.6472 
0.0073 20.0715 32.6555 
0.0074 20.1799 32.6638 
0.0075 20.2854 32.6722 
0.0076 20.388 32.6807 
0.0077 20.4876 32.6892 
0.0078 20.5842 32.6978 
0.0079 20.6776 32.7065 
0.008 20.7679 32.7152 
0.0081 20.8549 32.724 
0.0082 20.9386 32.7329 
0.0083 21.019 32.7418 
0.0084 21.0959 32.7508 
0.0085 21.1695 32.7599 
0.0086 21.2395 32.769 
0.0087 21.3061 32.7782 
0.0088 21.3691 32.7874 
0.0089 21.4286 32.7967 
0.009 21.4845 32.806 
0.0091 21.5367 32.8154 
0.0092 21.5854 32.8248 
0.0093 21.6305 32.8343 
0.0094 21.6719 32.8438 
0.0095 21.7097 32.8533 
0.0096 21.7439 32.8629 
0.0097 21.7745 32.8726 
0.0098 21.8015 32.8822 
0.0099 21.8249 32.8919 
0.01 21.8448 32.9017 
0.0101 21.8611 32.9114 
0.0102 21.8739 32.9212 
0.0103 21.8833 32.9311 
0.0104 21.8892 32.9409 
0.0105 21.8918 32.9508 
0.0106 21.891 32.9607 
0.0107 21.8869 32.9706 
0.0108 21.8796 32.9805 
0.0109 21.869 32.9905 
0.011 21.8554 33.0004 
0.0111 21.8387 33.0104 
0.0112 21.8189 33.0204 
0.0113 21.7963 33.0304 
0.0114 21.7707 33.0404 
0.0115 21.7424 33.0504 
0.0116 21.7114 33.0604 
0.0117 21.6777 33.0704 
0.0118 21.6415 33.0804 
0.0119 21.6028 33.0904 
0.012 21.5617 33.1004 
0.0121 21.5183 33.1104 
0.0122 21.4727 33.1204 
0.0123 21.425 33.1304 
0.0124 21.3753 33.1403 
0.0125 21.3236 33.1503 
0.0126 21.2702 33.1602 
0.0127 21.215 33.1701 
0.0128 21.1581 33.18 
0.0129 21.0998 33.1898 
0.013 21.04 33.1996 
0.0131 20.9789 33.2094 
0.0132 20.9166 33.2192 
0.0133 20.8532 33.2289 
0.0134 20.7887 33.2386 
0.0135 20.7234 33.2483 
0.0136 20.6573 33.2579 
0.0137 20.5905 33.2675 
0.0138 20.5231 33.277 
0.0139 20.4552 33.2865 
0.014 20.387 33.2959 
0.0141 20.3185 33.3053 
0.0142 20.2498 33.3146 
0.0143 20.1811 33.3239 
0.0144 20.1124 33.3331 
0.0145 20.0438 33.3423 
0.0146 19.9756 33.3514 
0.0147 19.9076 33.3604 
0.0148 19.8402 33.3694 
0.0149 19.7732 33.3783 
0.015 19.7069 33.3871 
0.0151 19.6414 33.3959 
0.0152 19.5767 33.4046 
0.0153 19.5129 33.4132 
0.0154 19.4502 33.4217 
0.0155 19.3885 33.4301 
0.0156 19.328 33.4385 
0.0157 19.2689 33.4467 
0.0158 19.211 33.4549 
0.0159 19.1546 33.463 
0.016 19.0998 33.471 
0.0161 19.0465 33.4789 
0.0162 18.9949 33.4867 
0.0163 18.945 33.4944 
0.0164 18.897 33.5019 
0.0165 18.8508 33.5094 
0.0166 18.8065 33.5168 
0.0167 18.7642 33.5241 
0.0168 18.724 33.5312 
0.0169 18.6859 33.5382 
0.017 18.65 33.5452 
0.0171 18.6162 33.5519 
0.0172 18.5848 33.5586 
0.0173 18.5556 33.5652 
0.0174 18.5287 33.5716 
0.0175 18.5043 33.5779 
0.0176 18.4822 33.584 
0.0177 18.4626 33.59 
0.0178 18.4454 33.5959 
0.0179 18.4308 33.6016 
0.018 18.4187 33.6072 
0.0181 18.4091 33.6127 
0.0182 18.4021 33.618 
0.0183 18.3976 33.6231 
0.0184 18.3957 33.6281 
0.0185 18.3964 33.633 
0.0186 18.3998 33.6377 
0.0187 18.4057 33.6422 
0.0188 18.4142 33.6465 
0.0189 18.4253 33.6507 
0.019 18.439 33.6548 
0.0191 18.4552 33.6586 
0.0192 18.4741 33.6623 
0.0193 18.4955 33.6658 
0.0194 18.5194 33.6691 
0.0195 18.5459 33.6723 
0.0196 18.5748 33.6753 
0.0197 18.6062 33.678 
0.0198 18.6401 33.6806 
0.0199 18.6763 33.683 
0.02 18.715 33.6852 
0.0201 18.756 33.6873 
0.0202 18.7993 33.6891 
0.0203 18.8449 33.6907 
0.0204 18.8927 33.6921 
0.0205 18.9427 33.6933 
0.0206 18.9949 33.6943 
0.0207 19.0491 33.6951 
0.0208 19.1055 33.6956 
0.0209 19.1638 33.696 
0.021 19.224 33.6961 
0.0211 19.2862 33.696 
0.0212 19.3502 33.6957 
0.0213 19.4159 33.6952 
0.0214 19.4834 33.6944 
0.0215 19.5526 33.6934 
0.0216 19.6234 33.6921 
0.0217 19.6957 33.6906 
0.0218 19.7695 33.6889 
0.0219 19.8447 33.687 
0.022 19.9212 33.6847 
0.0221 19.9991 33.6823 
0.0222 20.0781 33.6796 
0.0223 20.1583 33.6766 
0.0224 20.2396 33.6734 
0.0225 20.3219 33.6699 
0.0226 20.4052 33.6662 
0.0227 20.4893 33.6621 
0.0228 20.5742 33.6579 
0.0229 20.6598 33.6533 
0.023 20.7461 33.6485 
0.0231 20.833 33.6434 
0.0232 20.9204 33.638 
0.0233 21.0083 33.6324 
0.0234 21.0965 33.6264 
0.0235 21.185 33.6202 
0.0236 21.2738 33.6137 
0.0237 21.3627 33.6069 
0.0238 21.4517 33.5998 
0.0239 21.5407 33.5924 
0.024 21.6296 33.5847 
0.0241 21.7184 33.5766 
0.0242 21.807 33.5683 
0.0243 21.8954 33.5597 
0.0244 21.9834 33.5508 
0.0245 22.071 33.5415 
0.0246 22.1581 33.532 
0.0247 22.2447 33.5221 
0.0248 22.3307 33.5119 
0.0249 22.416 33.5013 
0.025 22.5005 33.4905 
0.0251 22.5843 33.4793 
0.0252 22.6672 33.4678 
0.0253 22.7491 33.4559 
0.0254 22.8301 33.4437 
0.0255 22.91 33.4311 
0.0256 22.9888 33.4183 
0.0257 23.0664 33.405 
0.0258 23.1428 33.3914 
0.0259 23.2179 33.3775 
0.026 23.2916 33.3632 
0.0261 23.364 33.3485 
0.0262 23.4349 33.3335 
0.0263 23.5043 33.3181 
0.0264 23.5722 33.3024 
0.0265 23.6384 33.2862 
0.0266 23.703 33.2697 
0.0267 23.7659 33.2529 
0.0268 23.8271 33.2356 
0.0269 23.8865 33.218 
0.027 23.944 33.2 
0.0271 23.9997 33.1815 
0.0272 24.0535 33.1627 
0.0273 24.1053 33.1435 
0.0274 24.1551 33.124 
0.0275 24.2029 33.104 
0.0276 24.2486 33.0836 
0.0277 24.2923 33.0628 
0.0278 24.3338 33.0416 
0.0279 24.3732 33.02 
0.028 24.4103 32.9979 
0.0281 24.4453 32.9755 
0.0282 24.478 32.9526 
0.0283 24.5085 32.9293 
0.0284 24.5367 32.9056 
0.0285 24.5625 32.8815 
0.0286 24.5861 32.8569 
0.0287 24.6072 32.8319 
0.0288 24.6261 32.8064 
0.0289 24.6425 32.7805 
0.029 24.6565 32.7542 
0.0291 24.6682 32.7274 
0.0292 24.6774 32.7002 
0.0293 24.6841 32.6725 
0.0294 24.6885 32.6444 
0.0295 24.6904 32.6158 
0.0296 24.6898 32.5867 
0.0297 24.6867 32.5572 
0.0298 24.6812 32.5272 
0.0299 24.6733 32.4968 
0.03 24.6629 32.4658 
